580
585
574
588
583
584
585
588
584
575
587
586
588
570
584
577
584
566
586
573
581
564
584
574
576
564
573
565
565
560
569
558
550
559
560
565
554
564
557
571
563
583
578
591
579
600
594
615
601
595
582
575
577
599
601
612
612
621
615
600
615
603
631
612
608
610
630
615
642
647
687
688
715
710
720
712
716
704
719
689
686
659
625
631
619
619
620
614
617
655
662
714
710
710
694
703
687
693
680
710
689
683
674
717
687
662
655
655
637
633
650
664
643
616
624
612
616
604
636
635
625
630
661
642
627
634
653
639
638
632
641
623
597
622
618
600
574
612
606
595
577
614
604
603
593
623
611
598
614
644
629
604
622
645
624
601
627
633
616
592
626
624
610
588
624
613
601
583
606
593
577
576
609
591
574
588
613
595
574
594
607
592
561
591
595
581
560
597
590
577
563
600
588
574
572
607
592
575
582
611
592
575
590
611
592
568
599
605
591
568
603
598
589
574
610
598
589
576
606
595
584
590
622
603
585
596
617
598
577
602
607
596
574
604
598
592
567
603
593
588
578
608
594
580
578
601
583
567
575
594
578
561
579
588
581
560
586
585
582
565
593
584
579
562
594
582
576
569
595
581
572
572
593
580
566
582
593
585
567
588
586
582
563
591
584
583
567
595
580
577
565
587
575
571
572
593
579
570
576
586
579
562
582
581
583
566
591
582
580
560
580
568
571
556
570
559
554
546
560
554
554
568
574
611
598
610
593
578
559
553
536
563
549
550
539
551
543
547
543
523
515
532
529
548
533
576
571
576
567
554
542
522
528
525
511
501
515
507
509
495
518
505
502
500
536
533
553
564
598
584
581
588
594
584
577
604
608
613
591
601
585
583
562
590
582
578
566
599
584
586
577
606
603
614
631
661
640
620
647
652
638
613
639
632
635
622
666
661
653
635
664
647
637
634
663
647
643
643
663
632
608
624
635
619
593
624
628
615
593
623
611
600
585
619
608
602
600
629
609
588
594
622
602
579
597
618
600
578
604
608
600
577
616
611
604
585
620
609
597
587
625
614
599
601
630
611
594
604
628
607
581
609
623
607
583
616
615
604
583
620
609
598
585
615
601
586
589
622
603
585
596
619
599
578
597
613
597
575
602
604
593
571
606
599
594
581
614
601
594
588
616
601
591
596
618
600
583
596
610
597
577
601
602
594
573
603
596
594
576
605
593
590
580
611
597
588
586
607
591
579
586
601
589
574
590
596
590
569
591
584
583
566
593
581
580
565
592
577
575
569
592
579
573
571
586
577
564
578
582
579
561
582
576
578
558
583
573
574
558
580
566
567
557
579
568
565
565
580
570
565
570
580
576
561
580
574
575
557
581
571
576
558
577
563
567
554
567
555
558
552
558
575
577
592
573
594
566
578
555
549
529
531
517
557
541
581
577
604
600
612
626
632
650
646
656
646
645
626
657
634
655
634
616
585
566
553
538
506
494
475
455
443
440
426
407
402
440
450
443
443
454
470
461
467
453
435
425
447
455
458
464
512
503
501
503
540
537
529
515
527
523
524
539
546
541
533
561
578
567
554
564
554
547
524
544
534
530
516
569
568
574
564
604
602
606
604
632
641
631
654
651
648
613
634
621
598
568
574
571
569
558
597
573
572
556
579
564
566
554
576
571
547
543
555
548
548
576
579
586
557
558
560
580
555
563
543
522
528
551
530
513
514
534
529
540
526
576
565
571
554
589
575
554
544
556
565
550
541
544
522
497
491
513
486
467
509
493
509
518
527
528
571
634
648
673
662
705
700
671
648
639
651
618
591
622
622
656
655
696
696
699
707
741
735
726
758
769
729
701
705
722
686
651
665
673
684
671
699
678
648
629
662
655
641
636
675
656
628
634
662
639
612
636
657
645
632
671
681
660
633
666
662
632
612
654
644
623
613
648
634
617
623
651
624
602
619
646
626
605
640
653
630
605
645
648
631
609
642
630
615
607
645
627
605
604
638
618
595
610
640
616
591
617
637
617
590
623
627
610
585
623
616
604
590
629
617
599
596
629
613
595
601
629
609
592
610
625
609
584
612
618
606
584
615
611
602
585
615
598
589
579
611
597
586
585
610
592
579
586
604
590
571
592
596
592
574
594
585
583
562
591
581
581
566
591
577
575
569
590
577
571
574
589
579
570
579
584
581
565
577
571
574
552
574
564
569
552
574
564
569
557
575
563
563
557
568
563
555
561
566
564
553
564
559
563
549
569
558
569
553
572
561
572
560
578
568
575
565
571
564
566
564
563
579
592
581
578
605
606
603
598
593
569
544
523
522
507
494
479
452
445
451
464
460
447
460
454
452
467
466
505
497
497
497
493
470
459
447
435
437
436
453
457
458
468
488
486
489
497
494
545
561
577
582
578
557
537
517
492
513
511
547
520
523
507
517
498
489
481
474
473
505
505
505
509
515
521
527
526
526
537
519
538
536
546
532
555
544
554
540
558
548
555
548
562
556
558
554
557
561
556
564
565
569
556
571
560
575
561
581
569
578
562
578
567
580
572
587
576
579
573
583
576
576
579
574
579
568
576
571
578
560
577
565
576
560
579
567
575
563
579
569
579
567
582
572
571
570
576
572
564
573
569
575
558
574
564
579
563
582
568
578
568
585
574
580
570
583
575
575
571
581
577
572
575
572
575
561
574
565
579
562
581
569
582
565
579
569
582
570
585
577
583
574
582
578
578
578
576
583
575
580
569
583
568
583
572
586
571
584
572
588
575
580
570
579
569
575
572
579
568
567
571
568
571
562
584
575
586
574
589
573
583
572
589
573
580
568
583
569
574
575
586
575
574
577
581
576
568
581
573
578
565
585
571
579
566
589
573
582
573
590
574
576
574
588
574
573
574
580
572
563
575
573
573
560
580
569
574
559
582
567
576
564
584
568
567
565
578
561
555
563
578
573
565
604
608
611
602
638
616
588
559
541
524
523
518
553
555
557
599
608
595
589
598
641
631
632
625
640
615
617
620
634
623
610
652
663
675
660
721
711
724
715
757
742
738
737
780
769
771
782
836
834
836
841
820
804
779
813
800
780
751
780
761
750
718
756
754
755
738
752
741
743
732
743
732
714
710
703
679
645
656
648
657
641
650
633
637
619
632
613
621
609
618
601
603
597
612
595
598
605
600
605
598
611
596
602
586
598
583
592
579
605
595
609
606
614
601
610
605
611
601
605
602
604
601
595
612
605
620
602
608
589
602
588
598
578
593
582
593
578
591
582
589
577
578
570
577
569
578
580
574
578
569
579
565
577
566
582
565
580
569
582
569
576
570
582
570
579
582
586
579
579
582
580
581
573
584
574
580
568
586
570
576
567
585
569
576
565
579
566
571
570
580
569
569
571
577
569
561
578
580
588
575
595
582
590
576
595
578
585
574
595
580
581
577
594
579
578
578
589
580
575
589
589
586
573
591
580
584
568
592
577
584
572
593
577
574
568
586
572
570
583
599
585
581
592
603
594
578
598
604
593
575
616
617
601
587
611
589
556
544
551
528
524
531
564
545
517
531
539
517
516
552
542
516
508
509
492
496
501
539
538
550
553
570
548
523
513
536
522
500
519
526
530
522
543
555
572
575
592
623
604
602
631
631
637
629
681
646
610
596
625
611
622
616
606
604
603
604
606
597
580
630
607
602
588
612
611
640
634
647
637
653
635
640
623
628
620
627
604
597
597
602
604
608
617
606
616
605
616
595
610
596
605
587
599
587
597
584
592
584
600
596
598
595
596
589
587
582
569
579
571
581
568
584
571
583
565
571
557
563
552
569
560
568
559
575
569
571
572
577
575
568
577
574
580
567
584
574
582
565
584
573
586
570
586
573
581
571
582
578
586
580
590
584
578
580
578
584
572
581
571
585
569
583
569
584
567
572
555
570
558
573
567
582
575
581
579
580
576
573
582
578
583
570
585
574
583
571
591
575
587
576
596
581
591
583
595
584
587
584
593
583
579
586
586
585
574
591
583
582
564
583
570
581
567
586
568
575
567
585
572
576
573
589
579
576
583
588
582
573
588
581
583
569
589
576
583
570
590
574
579
571
590
575
578
585
600
588
589
589
597
588
580
591
588
587
574
591
579
585
571
596
582
589
577
598
583
589
583
598
585
586
585
595
584
576
586
587
580
563
579
576
560
543
559
541
522
505
504
488
493
531
614
605
593
582
565
542
526
547
562
579
564
606
594
571
547
554
561
543
534
568
577
591
591
655
668
694
691
735
721
707
708
715
702
688
714
791
794
839
814
791
776
752
750
739
715
696
721
710
709
687
724
727
719
701
705
682
675
667
652
651
641
642
637
624
609
614
602
601
597
658
656
674
667
681
662
676
665
663
650
642
641
635
637
630
652
633
616
603
611
593
604
589
597
580
592
580
590
577
588
582
588
578
584
579
583
574
570
578
572
579
562
567
552
566
555
571
557
572
560
576
560
565
557
573
564
563
558
570
566
575
576
572
577
572
578
566
581
569
580
563
580
567
576
561
578
568
576
563
577
570
568
564
569
571
569
581
579
580
566
581
573
582
565
585
572
582
566
581
568
580
571
586
579
583
575
581
576
579
576
581
588
575
586
576
586
570
583
571
584
568
583
568
581
566
580
573
582
571
577
575
576
573
574
577
571
577
569
584
573
586
573
585
569
583
572
587
570
571
557
569
557
570
565
573
568
570
574
575
574
567
578
567
577
565
583
567
578
565
581
565
573
565
578
568
576
569
581
569
572
575
580
576
571
582
579
582
568
588
576
589
576
600
583
595
582
598
583
588
582
594
583
585
583
591
582
578
590
585
586
574
588
578
582
568
598
586
597
591
644
636
658
647
662
640
636
628
643
631
615
647
647
635
621
638
628
643
627
655
657
654
640
653
633
621
620
630
611
596
595
631
626
631
650
649
653
647
653
650
643
631
665
644
653
638
691
683
690
677
700
683
680
674
693
665
678
668
654
639
610
595
574
582
566
601
585
602
595
623
621
640
620
632
616
612
605
608
602
608
600
601
588
589
581
575
569
554
560
550
553
541
547
533
547
537
552
539
557
547
559
548
560
553
559
553
556
554
557
561
562
565
554
568
560
567
550
565
554
567
551
564
550
566
556
575
567
570
565
579
573
574
574
579
581
572
583
577
586
574
595
585
597
577
605
591
597
582
601
589
591
584
600
589
586
587
593
588
576
584
579
585
569
588
581
586
568
589
576
585
569
588
575
579
569
583
574
579
574
584
579
578
574
576
573
560
574
566
577
561
579
566
578
562
578
567
579
564
580
573
584
577
584
584
581
583
583
587
580
587
579
587
572
586
574
588
572
586
573
586
571
580
577
590
580
588
585
591
584
582
585
581
584
578
589
578
586
572
586
569
579
568
591
573
579
574
592
578
585
601
618
611
586
571
566
536
518
531
518
508
488
487
498
504
492
507
488
493
495
541
538
542
543
595
605
613
627
659
653
646
688
663
670
652
680
660
665
652
656
627
632
621
654
636
630
640
656
644
624
616
610
589
581
574
556
562
563
585
561
578
574
592
570
566
543
560
567
575
551
585
589
611
606
604
602
599
597
598
600
596
601
591
599
575
602
603
629
613
623
603
616
601
607
592
603
594
598
586
590
585
583
574
571
572
558
565
557
564
551
562
546
555
538
557
547
558
546
563
556
564
555
566
563
577
577
582
583
575
583
576
586
573
587
571
576
560
578
565
575
559
575
564
571
563
572
563
565
560
567
561
555
562
559
564
554
571
563
572
557
574
560
571
554
572
563
570
560
576
567
568
565
574
569
564
568
564
567
554
569
564
573
559
580
567
578
562
580
569
580
568
583
572
579
567
568
557
552
555
560
563
556
565
557
565
554
568
558
572
557
574
561
577
561
574
564
571
563
574
568
573
567
568
569
567
570
566
572
560
572
562
576
561
577
564
581
568
582
570
582
571
581
574
584
576
582
581
584
581
579
590
578
587
576
589
575
587
573
590
573
587
576
589
573
584
579
592
580
586
581
585
578
576
581
576
578
570
583
570
582
570
587
573
585
570
584
568
578
568
579
569
576
571
577
570
570
574
576
578
570
582
573
580
569
583
570
583
571
588
573
581
569
584
570
579
576
584
573
578
576
580
575
565
579
570
572
559
596
612
644
632
655
643
659
665
712
703
697
678
672
656
654
644
675
672
675
697
723
709
691
697
693
698
679
689
672
668
663
693
693
705
704
709
676
640
618
607
602
592
600
605
597
582
614
603
633
623
663
656
659
634
640
611
607
616
615
601
612
603
621
614
629
667
683
694
687
692
660
664
638
657
641
639
628
650
640
625
603
602
590
592
574
583
575
599
594
614
609
604
626
621
639
623
617
605
623
603
619
602
604
587
587
567
560
551
559
552
579
566
569
573
581
578
572
577
568
574
561
574
563
581
566
585
566
575
557
576
565
570
561
571
560
562
558
567
564
560
568
568
574
563
567
558
566
557
572
562
579
565
591
580
585
572
585
575
578
571
577
568
568
569
571
568
558
572
569
574
557
576
564
575
559
582
569
576
564
580
569
574
565
584
572
567
569
571
562
552
566
566
569
554
575
567
575
559
581
568
575
561
580
569
582
575
594
584
591
588
598
592
582
591
589
592
578
591
582
589
572
591
579
589
572
589
576
585
572
586
576
582
574
584
578
577
579
580
583
572
582
573
582
568
582
569
582
567
582
571
592
580
595
584
590
580
590
584
586
582
583
584
578
583
574
583
571
582
570
586
573
588
575
588
572
585
575
585
574
583
579
583
575
578
578
578
578
574
585
574
583
571
586
570
583
571
591
577
590
578
589
575
582
575
582
570
573
574
574
572
570
578
570
577
567
581
566
577
563
581
564
577
565
580
566
577
574
588
577
580
577
580
569
562
568
563
562
551
580
572
567
541
553
545
550
531
529
511
499
492
509
503
502
522
526
516
501
518
535
532
505
527
529
531
518
557
555
562
539
562
555
543
534
559
548
558
543
556
538
528
534
544
531
520
537
529
522
498
511
500
514
496
515
502
513
510
548
535
542
547
548
535
541
550
573
576
583
594
597
605
590
606
592
581
556
556
537
544
537
549
537
554
549
574
576
585
582
592
588
575
587
594
594
585
586
558
567
554
581
579
600
597
631
623
643
647
647
633
635
630
630
621
622
610
610
610
603
609
601
608
593
604
587
605
593
605
584
598
584
600
582
593
584
597
590
600
590
585
584
587
591
581
588
580
588
570
582
570
581
569
590
579
601
590
607
594
597
590
600
591
589
586
591
587
578
586
582
591
576
591
579
581
563
583
571
581
569
589
576
580
571
587
578
578
578
588
582
575
581
582
587
571
586
577
588
570
594
583
592
573
590
576
579
569
587
576
577
572
585
583
580
583
588
593
580
595
587
587
571
591
582
590
574
594
581
588
574
590
580
585
579
591
584
585
587
591
589
579
589
584
592
576
590
578
588
570
587
575
587
571
586
575
583
571
583
575
580
578
586
582
580
582
580
584
570
581
568
579
564
580
564
575
558
567
565
571
560
576
568
574
566
573
570
574
574
575
579
570
578
570
581
566
582
568
584
566
582
572
583
566
580
573
579
571
581
574
579
573
575
577
573
573
567
572
560
560
548
563
553
565
548
571
567
566
574
589
579
567
582
585
588
567
589
571
566
557
591
586
605
597
659
662
673
665
678
652
668
674
699
681
688
693
692
671
656
661
653
630
608
624
610
584
569
568
551
532
517
554
544
552
543
571
556
531
512
512
491
474
472
477
459
464
466
462
470
457
473
460
477
466
491
488
497
483
512
499
505
498
506
498
500
491
495
505
518
533
539
535
538
546
550
548
559
583
587
603
593
607
593
611
594
595
580
594
583
587
575
572
561
558
563
563
583
567
588
581
605
582
604
589
595
576
594
582
590
577
592
580
587
573
580
577
582
580
596
591
581
593
586
590
571
587
575
581
562
573
562
568
554
572
554
562
557
578
568
564
567
579
570
561
573
574
573
556
571
563
571
552
574
566
575
561
586
573
575
567
586
575
575
571
584
577
582
588
590
586
575
587
584
600
583
605
594
600
583
601
588
594
581
596
587
589
581
591
584
583
571
571
572
565
581
578
584
568
585
573
585
568
585
572
584
567
584
573
583
567
580
576
584
580
589
589
591
599
593
598
584
593
579
587
571
586
573
587
572
588
579
588
576
584
576
583
575
578
571
569
569
568
579
570
581
571
582
566
580
568
584
568
584
572
585
571
582
578
588
579
584
582
585
580
581
584
578
582
574
585
572
585
573
592
575
590
576
585
569
578
572
582
574
585
578
584
579
580
584
580
582
575
585
575
582
570
583
566
578
563
579
564
575
564
580
568
575
572
587
582
586
583
586
584
581
591
582
584
570
582
566
576
566
592
578
592
585
608
597
601
604
632
621
616
629
643
618
625
633
629
626
603
624
613
615
594
621
608
592
587
598
580
585
577
599
574
559
558
570
547
530
538
559
564
553
587
613
598
578
594
586
556
544
547
525
528
515
544
536
544
556
579
570
579
589
603
584
574
581
575
582
556
565
547
548
530
540
530
522
503
509
499
506
505
526
517
525
521
539
535
542
571
573
579
578
577
559
568
556
568
552
573
568
577
567
591
586
591
575
583
580
580
580
590
584
575
576
570
572
560
573
564
575
555
574
560
567
556
579
567
567
561
581
570
571
567
582
569
569
575
575
582
574
589
587
593
572
591
583
588
570
598
586
589
578
597
582
578
575
589
579
571
576
579
574
557
578
578
577
557
582
575
577
561
587
574
576
566
588
577
574
565
587
575
569
576
591
579
565
578
579
578
561
581
572
577
559
583
572
580
561
570
556
558
549
571
561
559
559
573
565
560
567
569
569
556
569
562
569
552
574
563
573
557
574
562
571
559
571
560
561
559
571
565
562
567
572
574
567
578
573
578
562
577
567
578
561
571
559
568
553
564
550
556
550
561
557
558
555
561
561
555
559
557
565
552
562
551
564
548
566
553
566
554
570
562
570
560
573
565
570
565
571
567
566
570
567
573
562
572
564
576
563
580
566
577
561
576
566
577
563
577
567
574
566
574
570
572
567
562
569
558
569
560
570
556
570
559
573
558
573
562
574
560
573
564
574
563
573
569
572
569
573
574
569
574
566
578
565
577
566
579
564
576
563
575
555
541
532
533
519
498
513
518
530
512
522
524
600
620
668
659
660
648
708
730
770
755
771
748
747
717
727
691
681
673
676
653
654
677
743
762
771
765
793
789
778
764
747
736
712
748
726
721
694
686
659
666
672
694
681
696
708
691
675
673
654
644
643
630
650
639
628
622
632
600
614
600
622
608
622
611
621
608
615
611
625
611
613
595
581
583
571
580
578
585
583
587
572
582
561
576
560
569
560
569
558
572
562
567
564
572
567
570
568
565
568
561
571
559
566
552
564
555
565
550
571
558
566
555
567
557
566
556
565
556
554
554
560
560
552
560
557
562
550
553
546
557
541
563
555
562
548
565
553
557
551
570
561
559
559
570
564
554
564
569
570
557
571
554
548
534
561
551
554
542
568
556
559
551
573
561
560
559
575
566
563
567
575
568
552
571
567
568
551
575
565
571
555
576
564
571
560
579
570
575
572
588
577
573
574
581
576
566
578
574
576
560
576
565
574
558
579
566
574
559
567
551
557
552
570
561
563
559
561
555
548
558
558
564
551
565
556
566
551
569
557
571
553
570
558
567
556
569
563
571
563
568
562
561
560
561
565
558
569
560
571
557
572
560
575
559
575
564
579
561
568
560
571
563
575
571
576
570
567
570
567
563
554
570
566
567
558
584
566
566
558
559
537
534
559
557
542
541
547
558
541
530
532
566
550
558
576
575
588
585
638
626
640
638
684
667
670
658
685
676
652
629
638
621
596
585
573
548
519
523
511
504
494
525
523
537
522
541
532
536
530
563
560
532
522
530
526
530
550
561
552
567
573
585
604
594
596
592
588
586
602
577
571
554
577
562
576
563
575
556
569
554
559
557
569
569
566
550
540
537
529
545
539
553
547
568
554
560
544
563
554
565
558
573
568
573
566
579
571
576
576
580
583
570
575
571
572
555
573
565
575
558
578
564
571
557
568
558
559
552
568
557
556
558
567
570
558
571
571
576
562
581
572
578
562
588
575
579
567
589
576
578
571
591
577
573
572
579
576
557
572
580
574
557
580
574
572
554
581
572
574
558
580
565
563
558
568
552
543
552
570
559
545
556
560
559
546
570
571
570
550
577
569
571
556
582
569
573
559
578
564
566
562
580
570
563
566
576
567
555
572
569
572
555
576
567
575
563
586
576
582
568
590
577
576
567
582
571
569
569
580
571
564
573
572
574
560
575
568
576
561
574
563
571
556
576
565
572
561
577
568
570
564
577
571
570
570
571
577
563
576
570
577
562
579
567
578
561
574
561
572
560
579
569
578
569
579
573
576
573
578
580
573
580
572
581
566
580
569
589
574
592
579
590
574
589
581
592
583
594
589
604
591
591
599
605
600
590
599
579
575
565
607
596
621
606
607
580
565
555
580
573
589
592
634
619
611
638
648
649
643
667
657
654
628
635
625
601
589
598
584
596
597
620
615
626
622
640
627
613
613
616
616
607
636
638
648
621
622
599
608
586
607
589
603
593
606
583
578
567
573
563
591
579
591
577
592
586
587
588
578
583
565
564
544
558
555
570
558
577
566
589
578
587
575
588
579
587
574
581
575
575
570
564
566
553
565
554
564
551
564
556
567
551
567
552
560
548
562
554
560
550
563
555
557
556
559
557
548
555
556
564
550
568
558
568
550
566
562
570
556
577
565
567
560
582
575
573
569
578
573
568
578
580
579
559
582
577
577
558
585
575
576
561
587
575
575
568
589
576
578
582
599
585
573
584
589
585
568
585
580
580
562
587
577
583
572
592
578
577
567
588
577
578
573
587
577
572
576
583
580
573
583
580
580
561
580
570
580
564
583
569
577
562
580
568
573
564
574
565
566
563
571
567
560
568
563
572
558
572
563
573
558
576
564
577
562
579
565
573
562
576
568
573
567
575
573
578
579
577
582
570
582
573
583
568
583
571
585
567
581
570
584
569
573
572
585
578
588
601
618
620
610
603
593
597
589
621
654
675
676
687
669
662
657
682
655
656
658
668
644
622
619
639
625
628
660
688
692
679
701
701
702
684
727
698
687
679
674
646
640
635
662
638
638
637
644
622
611
645
630
616
601
625
613
606
578
570
553
559
553
594
590
611
599
624
618
620
610
631
618
598
583
574
553
546
542
540
540
529
537
533
539
529
554
540
544
527
548
542
552
550
564
552
559
553
579
583
585
597
601
612
605
613
596
603
590
602
585
602
586
606
591
601
589
599
587
591
582
589
578
590
583
580
581
578
582
570
580
569
577
560
578
566
585
569
588
571
575
561
574
564
570
563
574
562
560
562
567
567
555
562
557
560
541
564
557
564
548
572
560
565
552
575
563
562
555
574
570
559
563
578
568
557
572
574
572
556
578
570
574
556
579
566
572
559
581
568
573
561
575
564
564
561
577
569
561
567
565
572
554
571
567
570
554
575
564
573
558
577
567
573
562
579
570
574
569
580
573
574
572
577
577
566
578
572
579
563
579
568
579
563
581
568
579
563
578
569
580
575
589
582
584
579
584
583
578
583
577
584
571
583
572
585
570
582
567
578
562
576
567
578
567
578
569
575
570
576
574
574
572
568
574
565
574
563
575
560
575
562
577
558
570
558
570
557
570
565
580
569
577
582
593
588
583
592
599
591
590
605
607
585
572
577
562
546
526
533
514
512
510
555
560
561
561
582
575
566
573
571
547
527
543
541
542
525
549
531
529
518
546
542
541
534
558
541
540
540
562
550
541
534
545
537
514
519
510
510
512
526
529
524
515
527
509
523
522
552
539
552
546
571
557
558
545
547
541
539
555
541
552
541
548
538
544
537
567
552
568
562
584
567
576
567
576
568
572
575
579
575
578
578
572
572
566
586
574
591
579
589
569
584
570
579
567
578
563
560
559
563
552
557
553
562
557
554
561
559
569
554
575
571
582
566
596
585
588
572
595
581
577
567
589
578
575
571
586
575
569
577
591
588
571
590
589
588
570
592
581
584
566
586
572
572
559
576
564
564
559
572
559
551
555
564
559
547
559
557
558
542
559
550
555
540
564
553
562
552
574
564
570
562
579
570
569
566
577
572
574
579
577
579
562
577
570
577
562
581
568
579
562
580
569
579
567
581
571
579
573
582
574
575
575
579
582
571
581
573
581
567
582
570
584
568
582
569
579
565
577
571
580
570
579
573
574
565
566
568
562
571
565
576
563
574
563
579
563
576
564
578
563
573
565
577
563
572
573
582
575
579
579
582
574
559
568
560
565
550
575
558
553
537
546
528
510
501
521
525
552
549
585
579
595
596
639
629
635
646
658
648
626
637
619
607
583
601
591
586
587
599
581
581
583
602
582
578
583
601
584
600
621
641
630
602
594
573
569
557
573
564
575
571
596
574
559
544
560
559
560
575
573
577
564
553
551
550
535
547
533
535
526
551
554
565
556
602
604
633
616
615
596
610
602
603
593
599
599
598
591
590
595
587
584
562
571
559
575
565
576
561
579
566
577
563
576
568
577
567
572
569
575
564
561
552
543
553
546
554
544
557
546
562
545
564
547
558
543
560
547
547
538
553
547
548
547
557
555
546
558
564
570
555
577
570
573
555
579
567
569
555
577
566
564
555
574
559
556
560
580
570
563
572
579
575
562
580
572
571
553
576
566
570
555
577
565
569
559
582
570
574
567
579
573
567
574
584
580
569
579
568
571
555
577
568
575
557
579
567
574
561
580
569
575
567
580
569
569
568
576
578
571
575
574
579
564
576
566
572
557
579
567
578
562
579
566
575
564
577
569
575
568
576
571
571
574
571
579
572
583
572
579
562
577
566
580
564
577
566
578
565
577
570
577
568
578
574
577
573
575
578
571
578
569
580
568
581
569
582
568
583
571
585
570
583
573
584
572
577
573
576
567
568
571
569
566
556
582
573
586
571
589
572
554
527
521
506
498
491
512
502
498
521
538
531
522
532
546
532
526
536
532
520
495
516
510
516
511
544
535
534
531
541
522
515
509
534
517
519
518
542
528
525
530
543
547
537
556
541
553
541
574
566
583
576
600
583
584
581
602
600
610
612
619
602
595
598
593
580
568
601
591
603
600
647
630
640
621
633
618
636
623
628
611
615
610
616
600
594
591
595
592
583
595
589
601
588
598
580
594
582
595
577
588
579
592
574
579
566
577
568
576
575
573
569
567
573
567
573
568
582
565
577
565
577
564
580
571
583
571
583
572
581
574
583
569
571
570
574
570
562
571
568
571
556
575
567
573
559
582
565
569
556
580
566
569
557
583
569
568
568
585
575
568
579
583
586
575
601
593
589
569
593
580
583
568
591
579
581
570
589
577
576
569
585
574
571
570
574
570
557
575
572
574
557
578
567
575
559
580
568
575
562
577
565
569
566
581
574
572
565
568
559
552
563
563
568
554
570
561
571
556
576
565
576
563
581
569
576
565
575
570
572
565
574
569
567
566
565
574
565
579
569
580
565
581
567
579
564
580
569
582
569
581
573
581
571
579
578
587
579
573
573
566
573
565
578
561
574
562
578
561
575
564
578
564
576
570
582
573
581
574
577
570
570
576
571
574
567
580
569
580
570
587
571
584
571
585
568
579
570
582
569
577
574
583
571
575
573
575
567
556
568
557
558
543
565
551
563
550
584
573
583
580
606
598
592
604
614
606
594
586
598
584
581
576
585
566
564
581
588
582
565
599
597
588
571
587
571
570
565
577
565
566
568
604
595
601
632
640
637
626
665
634
632
612
639
614
618
604
636
608
600
592
599
573
566
576
579
576
582
584
604
598
603
621
610
606
584
599
585
595
589
607
581
577
562
585
582
595
587
606
606
621
613
603
596
593
597
585
591
581
591
581
572
558
570
556
579
566
572
557
570
562
572
562
572
566
570
558
568
572
568
575
567
581
567
583
570
580
563
579
566
576
561
578
567
576
565
577
569
571
563
567
568
563
569
567
573
555
570
561
573
557
577
563
574
558
577
568
576
564
583
573
573
571
584
576
570
574
576
575
560
572
566
568
552
575
563
567
551
574
561
565
552
574
562
561
559
578
569
564
571
581
572
559
572
569
568
552
578
570
574
558
582
571
575
563
585
572
573
566
583
573
572
568
583
574
563
574
576
576
561
581
574
580
562
584
573
582
567
586
573
580
570
584
572
574
566
579
570
565
570
573
574
561
574
568
574
558
577
566
576
562
579
569
580
567
581
569
576
569
581
574
574
572
577
578
567
575
570
577
563
578
566
579
564
584
572
585
571
586
574
583
574
585
578
582
576
581
577
572
576
572
580
567
579
566
578
564
579
566
579
563
574
564
574
560
568
561
565
555
552
550
552
548
546
560
564
569
557
573
563
552
536
544
531
531
521
538
530
541
545
573
560
568
587
633
629
632
655
657
652
631
649
652
649
638
666
662
651
635
652
630
629
632
659
649
646
667
678
664
658
661
663
653
633
632
623
608
588
600
591
602
596
616
600
610
605
627
615
622
627
638
629
619
633
629
626
613
619
606
600
581
585
567
584
572
601
590
608
592
600
582
579
576
596
594
593
587
603
597
596
595
596
596
588
601
589
584
565
575
558
569
560
575
557
576
567
576
563
566
554
556
553
556
567
571
574
569
577
562
578
566
578
563
576
565
576
558
572
563
573
564
577
570
573
567
575
575
573
579
575
579
567
579
566
572
557
577
566
578
563
581
572
579
568
583
571
570
565
578
568
564
567
573
572
558
574
567
574
554
575
564
569
556
581
569
571
560
583
570
568
565
584
572
565
571
583
576
561
577
577
576
560
582
574
583
566
594
581
582
568
591
578